nm	Abs
700.00	-0.012
699.80	-0.013
699.60	-0.013
699.40	-0.012
699.20	-0.013
699.00	-0.012
698.80	-0.013
698.60	-0.013
698.40	-0.013
698.20	-0.012
698.00	-0.013
697.80	-0.013
697.60	-0.012
697.40	-0.012
697.20	-0.012
697.00	-0.013
696.80	-0.013
696.60	-0.012
696.40	-0.013
696.20	-0.013
696.00	-0.013
695.80	-0.013
695.60	-0.013
695.40	-0.012
695.20	-0.013
695.00	-0.012
694.80	-0.012
694.60	-0.013
694.40	-0.013
694.20	-0.012
694.00	-0.013
693.80	-0.013
693.60	-0.013
693.40	-0.013
693.20	-0.012
693.00	-0.013
692.80	-0.012
692.60	-0.013
692.40	-0.013
692.20	-0.012
692.00	-0.012
691.80	-0.013
691.60	-0.013
691.40	-0.013
691.20	-0.013
691.00	-0.012
690.80	-0.013
690.60	-0.012
690.40	-0.013
690.20	-0.013
690.00	-0.013
689.80	-0.012
689.60	-0.012
689.40	-0.013
689.20	-0.012
689.00	-0.012
688.80	-0.013
688.60	-0.012
688.40	-0.013
688.20	-0.012
688.00	-0.012
687.80	-0.012
687.60	-0.013
687.40	-0.011
687.20	-0.013
687.00	-0.013
686.80	-0.013
686.60	-0.012
686.40	-0.013
686.20	-0.013
686.00	-0.013
685.80	-0.012
685.60	-0.013
685.40	-0.013
685.20	-0.012
685.00	-0.013
684.80	-0.013
684.60	-0.013
684.40	-0.012
684.20	-0.013
684.00	-0.013
683.80	-0.013
683.60	-0.013
683.40	-0.012
683.20	-0.013
683.00	-0.013
682.80	-0.013
682.60	-0.013
682.40	-0.012
682.20	-0.012
682.00	-0.014
681.80	-0.012
681.60	-0.013
681.40	-0.013
681.20	-0.014
681.00	-0.012
680.80	-0.012
680.60	-0.013
680.40	-0.013
680.20	-0.012
680.00	-0.013
679.80	-0.013
679.60	-0.013
679.40	-0.012
679.20	-0.013
679.00	-0.013
678.80	-0.012
678.60	-0.013
678.40	-0.013
678.20	-0.012
678.00	-0.013
677.80	-0.011
677.60	-0.013
677.40	-0.012
677.20	-0.012
677.00	-0.013
676.80	-0.012
676.60	-0.012
676.40	-0.012
676.20	-0.013
676.00	-0.013
675.80	-0.013
675.60	-0.012
675.40	-0.012
675.20	-0.013
675.00	-0.013
674.80	-0.013
674.60	-0.013
674.40	-0.013
674.20	-0.013
674.00	-0.013
673.80	-0.013
673.60	-0.013
673.40	-0.012
673.20	-0.013
673.00	-0.012
672.80	-0.013
672.60	-0.013
672.40	-0.013
672.20	-0.013
672.00	-0.012
671.80	-0.012
671.60	-0.013
671.40	-0.012
671.20	-0.013
671.00	-0.013
670.80	-0.013
670.60	-0.012
670.40	-0.013
670.20	-0.012
670.00	-0.012
669.80	-0.012
669.60	-0.013
669.40	-0.013
669.20	-0.012
669.00	-0.012
668.80	-0.012
668.60	-0.012
668.40	-0.013
668.20	-0.013
668.00	-0.012
667.80	-0.012
667.60	-0.013
667.40	-0.012
667.20	-0.012
667.00	-0.012
666.80	-0.013
666.60	-0.012
666.40	-0.012
666.20	-0.012
666.00	-0.012
665.80	-0.012
665.60	-0.012
665.40	-0.012
665.20	-0.012
665.00	-0.012
664.80	-0.012
664.60	-0.012
664.40	-0.013
664.20	-0.013
664.00	-0.012
663.80	-0.013
663.60	-0.012
663.40	-0.012
663.20	-0.012
663.00	-0.012
662.80	-0.012
662.60	-0.012
662.40	-0.012
662.20	-0.012
662.00	-0.013
661.80	-0.012
661.60	-0.012
661.40	-0.012
661.20	-0.013
661.00	-0.012
660.80	-0.013
660.60	-0.012
660.40	-0.012
660.20	-0.012
660.00	-0.013
659.80	-0.012
659.60	-0.013
659.40	-0.013
659.20	-0.013
659.00	-0.012
658.80	-0.012
658.60	-0.012
658.40	-0.012
658.20	-0.012
658.00	-0.013
657.80	-0.012
657.60	-0.013
657.40	-0.012
657.20	-0.012
657.00	-0.012
656.80	-0.012
656.60	-0.012
656.40	-0.012
656.20	-0.012
656.00	-0.011
655.80	-0.013
655.60	-0.012
655.40	-0.012
655.20	-0.011
655.00	-0.012
654.80	-0.012
654.60	-0.012
654.40	-0.011
654.20	-0.012
654.00	-0.012
653.80	-0.012
653.60	-0.011
653.40	-0.012
653.20	-0.012
653.00	-0.012
652.80	-0.012
652.60	-0.011
652.40	-0.012
652.20	-0.011
652.00	-0.012
651.80	-0.011
651.60	-0.012
651.40	-0.011
651.20	-0.011
651.00	-0.012
650.80	-0.012
650.60	-0.012
650.40	-0.011
650.20	-0.011
650.00	-0.011
649.80	-0.012
649.60	-0.011
649.40	-0.011
649.20	-0.011
649.00	-0.011
648.80	-0.011
648.60	-0.010
648.40	-0.012
648.20	-0.011
648.00	-0.011
647.80	-0.011
647.60	-0.011
647.40	-0.011
647.20	-0.011
647.00	-0.011
646.80	-0.010
646.60	-0.011
646.40	-0.010
646.20	-0.011
646.00	-0.011
645.80	-0.011
645.60	-0.011
645.40	-0.011
645.20	-0.011
645.00	-0.010
644.80	-0.011
644.60	-0.010
644.40	-0.011
644.20	-0.010
644.00	-0.010
643.80	-0.010
643.60	-0.010
643.40	-0.010
643.20	-0.011
643.00	-0.010
642.80	-0.010
642.60	-0.009
642.40	-0.009
642.20	-0.010
642.00	-0.010
641.80	-0.010
641.60	-0.010
641.40	-0.009
641.20	-0.009
641.00	-0.008
640.80	-0.009
640.60	-0.008
640.40	-0.009
640.20	-0.010
640.00	-0.009
639.80	-0.009
639.60	-0.008
639.40	-0.008
639.20	-0.009
639.00	-0.007
638.80	-0.008
638.60	-0.008
638.40	-0.008
638.20	-0.008
638.00	-0.008
637.80	-0.007
637.60	-0.007
637.40	-0.008
637.20	-0.007
637.00	-0.007
636.80	-0.008
636.60	-0.007
636.40	-0.007
636.20	-0.007
636.00	-0.006
635.80	-0.006
635.60	-0.006
635.40	-0.007
635.20	-0.006
635.00	-0.007
634.80	-0.006
634.60	-0.005
634.40	-0.005
634.20	-0.005
634.00	-0.006
633.80	-0.005
633.60	-0.004
633.40	-0.004
633.20	-0.004
633.00	-0.004
632.80	-0.004
632.60	-0.004
632.40	-0.004
632.20	-0.003
632.00	-0.004
631.80	-0.003
631.60	-0.003
631.40	-0.002
631.20	-0.002
631.00	-0.002
630.80	-0.003
630.60	-0.002
630.40	-0.002
630.20	-0.001
630.00	-0.001
629.80	-0.002
629.60	0.000
629.40	-0.001
629.20	0.000
629.00	0.001
628.80	0.001
628.60	0.001
628.40	0.001
628.20	0.001
628.00	0.001
627.80	0.002
627.60	0.002
627.40	0.003
627.20	0.003
627.00	0.003
626.80	0.004
626.60	0.003
626.40	0.004
626.20	0.005
626.00	0.004
625.80	0.005
625.60	0.005
625.40	0.006
625.20	0.007
625.00	0.007
624.80	0.007
624.60	0.007
624.40	0.008
624.20	0.008
624.00	0.008
623.80	0.009
623.60	0.010
623.40	0.010
623.20	0.011
623.00	0.011
622.80	0.011
622.60	0.012
622.40	0.011
622.20	0.013
622.00	0.013
621.80	0.014
621.60	0.014
621.40	0.016
621.20	0.015
621.00	0.015
620.80	0.017
620.60	0.017
620.40	0.018
620.20	0.019
620.00	0.019
619.80	0.020
619.60	0.021
619.40	0.021
619.20	0.022
619.00	0.023
618.80	0.023
618.60	0.023
618.40	0.024
618.20	0.024
618.00	0.025
617.80	0.027
617.60	0.027
617.40	0.028
617.20	0.028
617.00	0.029
616.80	0.030
616.60	0.031
616.40	0.031
616.20	0.033
616.00	0.033
615.80	0.034
615.60	0.035
615.40	0.035
615.20	0.036
615.00	0.038
614.80	0.039
614.60	0.039
614.40	0.040
614.20	0.041
614.00	0.043
613.80	0.043
613.60	0.043
613.40	0.044
613.20	0.045
613.00	0.046
612.80	0.047
612.60	0.049
612.40	0.049
612.20	0.050
612.00	0.052
611.80	0.052
611.60	0.053
611.40	0.054
611.20	0.055
611.00	0.057
610.80	0.058
610.60	0.058
610.40	0.060
610.20	0.060
610.00	0.061
609.80	0.064
609.60	0.064
609.40	0.065
609.20	0.066
609.00	0.067
608.80	0.067
608.60	0.070
608.40	0.071
608.20	0.072
608.00	0.073
607.80	0.074
607.60	0.075
607.40	0.076
607.20	0.077
607.00	0.079
606.80	0.080
606.60	0.081
606.40	0.081
606.20	0.083
606.00	0.084
605.80	0.085
605.60	0.086
605.40	0.087
605.20	0.087
605.00	0.089
604.80	0.091
604.60	0.091
604.40	0.092
604.20	0.093
604.00	0.095
603.80	0.097
603.60	0.097
603.40	0.098
603.20	0.099
603.00	0.101
602.80	0.102
602.60	0.102
602.40	0.103
602.20	0.104
602.00	0.104
601.80	0.106
601.60	0.107
601.40	0.108
601.20	0.109
601.00	0.110
600.80	0.110
600.60	0.112
600.40	0.113
600.20	0.114
600.00	0.114
599.80	0.115
599.60	0.116
599.40	0.118
599.20	0.117
599.00	0.119
598.80	0.120
598.60	0.120
598.40	0.120
598.20	0.121
598.00	0.123
597.80	0.123
597.60	0.123
597.40	0.124
597.20	0.125
597.00	0.125
596.80	0.126
596.60	0.126
596.40	0.127
596.20	0.126
596.00	0.128
595.80	0.128
595.60	0.128
595.40	0.129
595.20	0.129
595.00	0.130
594.80	0.130
594.60	0.130
594.40	0.130
594.20	0.130
594.00	0.131
593.80	0.131
593.60	0.131
593.40	0.131
593.20	0.131
593.00	0.132
592.80	0.133
592.60	0.132
592.40	0.131
592.20	0.132
592.00	0.132
591.80	0.133
591.60	0.131
591.40	0.131
591.20	0.132
591.00	0.131
590.80	0.131
590.60	0.132
590.40	0.131
590.20	0.131
590.00	0.131
589.80	0.131
589.60	0.132
589.40	0.131
589.20	0.131
589.00	0.130
588.80	0.129
588.60	0.130
588.40	0.130
588.20	0.129
588.00	0.130
587.80	0.129
587.60	0.128
587.40	0.127
587.20	0.128
587.00	0.126
586.80	0.127
586.60	0.126
586.40	0.127
586.20	0.126
586.00	0.125
585.80	0.125
585.60	0.125
585.40	0.124
585.20	0.123
585.00	0.123
584.80	0.122
584.60	0.122
584.40	0.121
584.20	0.120
584.00	0.121
583.80	0.120
583.60	0.118
583.40	0.118
583.20	0.118
583.00	0.118
582.80	0.117
582.60	0.117
582.40	0.115
582.20	0.116
582.00	0.115
581.80	0.114
581.60	0.113
581.40	0.113
581.20	0.113
581.00	0.112
580.80	0.111
580.60	0.110
580.40	0.110
580.20	0.109
580.00	0.110
579.80	0.108
579.60	0.107
579.40	0.107
579.20	0.106
579.00	0.105
578.80	0.105
578.60	0.104
578.40	0.104
578.20	0.103
578.00	0.102
577.80	0.101
577.60	0.101
577.40	0.101
577.20	0.100
577.00	0.100
576.80	0.099
576.60	0.099
576.40	0.097
576.20	0.097
576.00	0.097
575.80	0.096
575.60	0.096
575.40	0.095
575.20	0.095
575.00	0.094
574.80	0.093
574.60	0.093
574.40	0.092
574.20	0.092
574.00	0.091
573.80	0.092
573.60	0.090
573.40	0.090
573.20	0.090
573.00	0.088
572.80	0.088
572.60	0.087
572.40	0.087
572.20	0.087
572.00	0.086
571.80	0.086
571.60	0.085
571.40	0.084
571.20	0.084
571.00	0.083
570.80	0.083
570.60	0.083
570.40	0.082
570.20	0.082
570.00	0.081
569.80	0.080
569.60	0.081
569.40	0.079
569.20	0.079
569.00	0.078
568.80	0.078
568.60	0.078
568.40	0.078
568.20	0.076
568.00	0.076
567.80	0.077
567.60	0.075
567.40	0.075
567.20	0.075
567.00	0.075
566.80	0.075
566.60	0.074
566.40	0.075
566.20	0.073
566.00	0.074
565.80	0.072
565.60	0.073
565.40	0.072
565.20	0.072
565.00	0.072
564.80	0.071
564.60	0.071
564.40	0.070
564.20	0.071
564.00	0.070
563.80	0.069
563.60	0.069
563.40	0.069
563.20	0.069
563.00	0.068
562.80	0.068
562.60	0.068
562.40	0.067
562.20	0.068
562.00	0.067
561.80	0.067
561.60	0.066
561.40	0.066
561.20	0.066
561.00	0.066
560.80	0.065
560.60	0.065
560.40	0.064
560.20	0.065
560.00	0.063
559.80	0.064
559.60	0.063
559.40	0.063
559.20	0.063
559.00	0.063
558.80	0.063
558.60	0.062
558.40	0.062
558.20	0.062
558.00	0.061
557.80	0.061
557.60	0.061
557.40	0.060
557.20	0.061
557.00	0.060
556.80	0.061
556.60	0.059
556.40	0.060
556.20	0.060
556.00	0.060
555.80	0.059
555.60	0.059
555.40	0.058
555.20	0.059
555.00	0.058
554.80	0.058
554.60	0.057
554.40	0.058
554.20	0.058
554.00	0.057
553.80	0.058
553.60	0.057
553.40	0.057
553.20	0.057
553.00	0.057
552.80	0.055
552.60	0.056
552.40	0.056
552.20	0.056
552.00	0.056
551.80	0.055
551.60	0.055
551.40	0.055
551.20	0.054
551.00	0.055
550.80	0.054
550.60	0.054
550.40	0.053
550.20	0.053
550.00	0.053
549.80	0.054
549.60	0.053
549.40	0.052
549.20	0.053
549.00	0.052
548.80	0.052
548.60	0.052
548.40	0.052
548.20	0.051
548.00	0.051
547.80	0.052
547.60	0.052
547.40	0.051
547.20	0.051
547.00	0.051
546.80	0.051
546.60	0.050
546.40	0.050
546.20	0.049
546.00	0.049
545.80	0.049
545.60	0.050
545.40	0.048
545.20	0.049
545.00	0.049
544.80	0.049
544.60	0.048
544.40	0.049
544.20	0.049
544.00	0.047
543.80	0.047
543.60	0.046
543.40	0.048
543.20	0.048
543.00	0.047
542.80	0.047
542.60	0.048
542.40	0.047
542.20	0.046
542.00	0.046
541.80	0.046
541.60	0.046
541.40	0.046
541.20	0.045
541.00	0.046
540.80	0.046
540.60	0.045
540.40	0.044
540.20	0.045
540.00	0.045
539.80	0.045
539.60	0.045
539.40	0.044
539.20	0.045
539.00	0.044
538.80	0.044
538.60	0.044
538.40	0.043
538.20	0.044
538.00	0.043
537.80	0.043
537.60	0.044
537.40	0.044
537.20	0.043
537.00	0.042
536.80	0.043
536.60	0.043
536.40	0.042
536.20	0.043
536.00	0.042
535.80	0.043
535.60	0.042
535.40	0.041
535.20	0.042
535.00	0.042
534.80	0.042
534.60	0.042
534.40	0.041
534.20	0.042
534.00	0.042
533.80	0.041
533.60	0.041
533.40	0.041
533.20	0.041
533.00	0.041
532.80	0.041
532.60	0.041
532.40	0.041
532.20	0.042
532.00	0.039
531.80	0.041
531.60	0.041
531.40	0.040
531.20	0.040
531.00	0.047
530.80	0.046
530.60	0.046
530.40	0.047
530.20	0.047
530.00	0.047
529.80	0.046
529.60	0.046
529.40	0.046
529.20	0.046
529.00	0.045
528.80	0.044
528.60	0.047
528.40	0.047
528.20	0.047
528.00	0.046
527.80	0.047
527.60	0.046
527.40	0.047
527.20	0.045
527.00	0.047
526.80	0.048
526.60	0.047
526.40	0.046
526.20	0.045
526.00	0.047
525.80	0.046
525.60	0.047
525.40	0.048
525.20	0.047
525.00	0.047
524.80	0.048
524.60	0.046
524.40	0.047
524.20	0.047
524.00	0.046
523.80	0.046
523.60	0.048
523.40	0.048
523.20	0.046
523.00	0.046
522.80	0.046
522.60	0.047
522.40	0.048
522.20	0.046
522.00	0.047
521.80	0.048
521.60	0.047
521.40	0.047
521.20	0.047
521.00	0.049
520.80	0.048
520.60	0.047
520.40	0.048
520.20	0.048
520.00	0.048
519.80	0.049
519.60	0.048
519.40	0.048
519.20	0.048
519.00	0.049
518.80	0.048
518.60	0.049
518.40	0.050
518.20	0.049
518.00	0.048
517.80	0.048
517.60	0.048
517.40	0.050
517.20	0.051
517.00	0.050
516.80	0.051
516.60	0.050
516.40	0.050
516.20	0.051
516.00	0.051
515.80	0.051
515.60	0.051
515.40	0.051
515.20	0.051
515.00	0.050
514.80	0.051
514.60	0.053
514.40	0.052
514.20	0.053
514.00	0.052
513.80	0.053
513.60	0.053
513.40	0.053
513.20	0.053
513.00	0.053
512.80	0.053
512.60	0.054
512.40	0.054
512.20	0.054
512.00	0.055
511.80	0.055
511.60	0.054
511.40	0.055
511.20	0.056
511.00	0.055
510.80	0.055
510.60	0.056
510.40	0.057
510.20	0.057
510.00	0.057
509.80	0.058
509.60	0.058
509.40	0.058
509.20	0.058
509.00	0.057
508.80	0.058
508.60	0.059
508.40	0.059
508.20	0.060
508.00	0.059
507.80	0.060
507.60	0.060
507.40	0.061
507.20	0.061
507.00	0.060
506.80	0.061
506.60	0.061
506.40	0.063
506.20	0.062
506.00	0.063
505.80	0.062
505.60	0.063
505.40	0.063
505.20	0.064
505.00	0.065
504.80	0.064
504.60	0.064
504.40	0.065
504.20	0.064
504.00	0.065
503.80	0.066
503.60	0.067
503.40	0.066
503.20	0.067
503.00	0.067
502.80	0.067
502.60	0.069
502.40	0.068
502.20	0.070
502.00	0.070
501.80	0.071
501.60	0.071
501.40	0.071
501.20	0.071
501.00	0.070
500.80	0.071
500.60	0.072
500.40	0.072
500.20	0.072
500.00	0.073
499.80	0.074
499.60	0.074
499.40	0.075
499.20	0.075
499.00	0.076
498.80	0.076
498.60	0.075
498.40	0.078
498.20	0.078
498.00	0.076
497.80	0.077
497.60	0.077
497.40	0.079
497.20	0.080
497.00	0.079
496.80	0.080
496.60	0.080
496.40	0.080
496.20	0.082
496.00	0.081
495.80	0.082
495.60	0.083
495.40	0.082
495.20	0.083
495.00	0.084
494.80	0.084
494.60	0.086
494.40	0.085
494.20	0.085
494.00	0.086
493.80	0.087
493.60	0.087
493.40	0.087
493.20	0.089
493.00	0.088
492.80	0.088
492.60	0.089
492.40	0.091
492.20	0.090
492.00	0.091
491.80	0.092
491.60	0.092
491.40	0.092
491.20	0.093
491.00	0.094
490.80	0.094
490.60	0.093
490.40	0.095
490.20	0.095
490.00	0.096
489.80	0.097
489.60	0.097
489.40	0.098
489.20	0.098
489.00	0.100
488.80	0.099
488.60	0.099
488.40	0.100
488.20	0.101
488.00	0.101
487.80	0.102
487.60	0.103
487.40	0.103
487.20	0.104
487.00	0.105
486.80	0.105
486.60	0.105
486.40	0.106
486.20	0.107
486.00	0.108
485.80	0.107
485.60	0.108
485.40	0.108
485.20	0.108
485.00	0.108
484.80	0.110
484.60	0.110
484.40	0.112
484.20	0.111
484.00	0.112
483.80	0.113
483.60	0.114
483.40	0.114
483.20	0.113
483.00	0.115
482.80	0.117
482.60	0.116
482.40	0.117
482.20	0.118
482.00	0.116
481.80	0.118
481.60	0.119
481.40	0.119
481.20	0.119
481.00	0.122
480.80	0.121
480.60	0.122
480.40	0.123
480.20	0.124
480.00	0.124
479.80	0.124
479.60	0.124
479.40	0.126
479.20	0.126
479.00	0.126
478.80	0.128
478.60	0.128
478.40	0.128
478.20	0.129
478.00	0.129
477.80	0.130
477.60	0.131
477.40	0.132
477.20	0.133
477.00	0.133
476.80	0.135
476.60	0.134
476.40	0.134
476.20	0.135
476.00	0.136
475.80	0.135
475.60	0.137
475.40	0.136
475.20	0.138
475.00	0.137
474.80	0.138
474.60	0.139
474.40	0.140
474.20	0.142
474.00	0.141
473.80	0.142
473.60	0.141
473.40	0.142
473.20	0.144
473.00	0.144
472.80	0.144
472.60	0.145
472.40	0.145
472.20	0.146
472.00	0.146
471.80	0.148
471.60	0.148
471.40	0.148
471.20	0.148
471.00	0.151
470.80	0.150
470.60	0.151
470.40	0.152
470.20	0.151
470.00	0.153
469.80	0.154
469.60	0.153
469.40	0.155
469.20	0.156
469.00	0.155
468.80	0.154
468.60	0.157
468.40	0.157
468.20	0.157
468.00	0.158
467.80	0.159
467.60	0.160
467.40	0.160
467.20	0.159
467.00	0.161
466.80	0.164
466.60	0.161
466.40	0.162
466.20	0.163
466.00	0.163
465.80	0.163
465.60	0.163
465.40	0.165
465.20	0.166
465.00	0.165
464.80	0.166
464.60	0.167
464.40	0.167
464.20	0.169
464.00	0.169
463.80	0.169
463.60	0.170
463.40	0.170
463.20	0.172
463.00	0.171
462.80	0.172
462.60	0.173
462.40	0.173
462.20	0.174
462.00	0.174
461.80	0.173
461.60	0.175
461.40	0.174
461.20	0.176
461.00	0.176
460.80	0.178
460.60	0.178
460.40	0.179
460.20	0.177
460.00	0.181
459.80	0.181
459.60	0.178
459.40	0.180
459.20	0.181
459.00	0.181
458.80	0.182
458.60	0.182
458.40	0.182
458.20	0.184
458.00	0.184
457.80	0.184
457.60	0.183
457.40	0.186
457.20	0.186
457.00	0.185
456.80	0.185
456.60	0.185
456.40	0.187
456.20	0.187
456.00	0.187
455.80	0.189
455.60	0.188
455.40	0.186
455.20	0.187
455.00	0.189
454.80	0.190
454.60	0.190
454.40	0.189
454.20	0.190
454.00	0.190
453.80	0.193
453.60	0.191
453.40	0.192
453.20	0.194
453.00	0.193
452.80	0.194
452.60	0.194
452.40	0.193
452.20	0.193
452.00	0.195
451.80	0.194
451.60	0.194
451.40	0.196
451.20	0.196
451.00	0.197
450.80	0.194
450.60	0.197
450.40	0.197
450.20	0.197
450.00	0.199
449.80	0.198
449.60	0.196
449.40	0.198
449.20	0.197
449.00	0.198
448.80	0.199
448.60	0.199
448.40	0.198
448.20	0.199
448.00	0.200
447.80	0.198
447.60	0.196
447.40	0.201
447.20	0.201
447.00	0.200
446.80	0.200
446.60	0.200
446.40	0.199
446.20	0.200
446.00	0.202
445.80	0.202
445.60	0.203
445.40	0.203
445.20	0.202
445.00	0.203
444.80	0.201
444.60	0.202
444.40	0.201
444.20	0.205
444.00	0.203
443.80	0.202
443.60	0.204
443.40	0.204
443.20	0.203
443.00	0.202
442.80	0.204
442.60	0.203
442.40	0.204
442.20	0.202
442.00	0.204
441.80	0.204
441.60	0.204
441.40	0.204
441.20	0.204
441.00	0.204
440.80	0.204
440.60	0.203
440.40	0.202
440.20	0.205
440.00	0.204
439.80	0.205
439.60	0.204
439.40	0.204
439.20	0.205
439.00	0.205
438.80	0.205
438.60	0.202
438.40	0.204
438.20	0.203
438.00	0.205
437.80	0.203
437.60	0.204
437.40	0.205
437.20	0.204
437.00	0.204
436.80	0.205
436.60	0.204
436.40	0.205
436.20	0.203
436.00	0.205
435.80	0.203
435.60	0.205
435.40	0.204
435.20	0.201
435.00	0.202
434.80	0.205
434.60	0.203
434.40	0.203
434.20	0.201
434.00	0.201
433.80	0.202
433.60	0.203
433.40	0.203
433.20	0.200
433.00	0.202
432.80	0.201
432.60	0.204
432.40	0.201
432.20	0.203
432.00	0.201
431.80	0.202
431.60	0.204
431.40	0.201
431.20	0.202
431.00	0.199
430.80	0.199
430.60	0.200
430.40	0.201
430.20	0.199
430.00	0.200
429.80	0.198
429.60	0.199
429.40	0.198
429.20	0.197
429.00	0.199
428.80	0.199
428.60	0.197
428.40	0.198
428.20	0.196
428.00	0.198
427.80	0.196
427.60	0.196
427.40	0.196
427.20	0.196
427.00	0.194
426.80	0.195
426.60	0.197
426.40	0.196
426.20	0.195
426.00	0.193
425.80	0.194
425.60	0.193
425.40	0.194
425.20	0.192
425.00	0.191
424.80	0.192
424.60	0.193
424.40	0.190
424.20	0.191
424.00	0.190
423.80	0.189
423.60	0.191
423.40	0.188
423.20	0.189
423.00	0.189
422.80	0.189
422.60	0.188
422.40	0.189
422.20	0.188
422.00	0.181
421.80	0.179
421.60	0.180
421.40	0.179
421.20	0.178
421.00	0.178
420.80	0.177
420.60	0.176
420.40	0.177
420.20	0.177
420.00	0.177
419.80	0.177
419.60	0.175
419.40	0.174
419.20	0.175
419.00	0.172
418.80	0.174
418.60	0.174
418.40	0.171
418.20	0.173
418.00	0.171
417.80	0.172
417.60	0.170
417.40	0.171
417.20	0.172
417.00	0.171
416.80	0.169
416.60	0.169
416.40	0.168
416.20	0.168
416.00	0.167
415.80	0.166
415.60	0.167
415.40	0.167
415.20	0.168
415.00	0.164
414.80	0.167
414.60	0.165
414.40	0.162
414.20	0.163
414.00	0.163
413.80	0.161
413.60	0.160
413.40	0.159
413.20	0.158
413.00	0.161
412.80	0.162
412.60	0.158
412.40	0.159
412.20	0.159
412.00	0.158
411.80	0.158
411.60	0.158
411.40	0.157
411.20	0.157
411.00	0.155
410.80	0.155
410.60	0.156
410.40	0.155
410.20	0.153
410.00	0.153
409.80	0.152
409.60	0.152
409.40	0.151
409.20	0.149
409.00	0.153
408.80	0.150
408.60	0.149
408.40	0.149
408.20	0.149
408.00	0.148
407.80	0.148
407.60	0.147
407.40	0.147
407.20	0.146
407.00	0.145
406.80	0.145
406.60	0.144
406.40	0.144
406.20	0.144
406.00	0.142
405.80	0.140
405.60	0.142
405.40	0.142
405.20	0.141
405.00	0.139
404.80	0.143
404.60	0.140
404.40	0.140
404.20	0.138
404.00	0.138
403.80	0.138
403.60	0.138
403.40	0.137
403.20	0.136
403.00	0.136
402.80	0.137
402.60	0.136
402.40	0.135
402.20	0.133
402.00	0.135
401.80	0.133
401.60	0.132
401.40	0.133
401.20	0.131
401.00	0.130
400.80	0.127
400.60	0.132
400.40	0.130
400.20	0.131
400.00	0.128
