nm	Abs
700.00	-0.013
699.80	-0.012
699.60	-0.013
699.40	-0.012
699.20	-0.012
699.00	-0.012
698.80	-0.012
698.60	-0.012
698.40	-0.012
698.20	-0.013
698.00	-0.013
697.80	-0.013
697.60	-0.012
697.40	-0.013
697.20	-0.012
697.00	-0.012
696.80	-0.012
696.60	-0.012
696.40	-0.012
696.20	-0.012
696.00	-0.012
695.80	-0.013
695.60	-0.013
695.40	-0.012
695.20	-0.012
695.00	-0.013
694.80	-0.012
694.60	-0.012
694.40	-0.012
694.20	-0.012
694.00	-0.012
693.80	-0.012
693.60	-0.012
693.40	-0.013
693.20	-0.011
693.00	-0.012
692.80	-0.013
692.60	-0.013
692.40	-0.013
692.20	-0.012
692.00	-0.012
691.80	-0.013
691.60	-0.012
691.40	-0.013
691.20	-0.012
691.00	-0.012
690.80	-0.013
690.60	-0.012
690.40	-0.012
690.20	-0.012
690.00	-0.013
689.80	-0.012
689.60	-0.012
689.40	-0.013
689.20	-0.012
689.00	-0.012
688.80	-0.012
688.60	-0.013
688.40	-0.012
688.20	-0.012
688.00	-0.012
687.80	-0.012
687.60	-0.012
687.40	-0.012
687.20	-0.012
687.00	-0.013
686.80	-0.013
686.60	-0.012
686.40	-0.012
686.20	-0.012
686.00	-0.013
685.80	-0.013
685.60	-0.013
685.40	-0.012
685.20	-0.012
685.00	-0.013
684.80	-0.013
684.60	-0.012
684.40	-0.012
684.20	-0.013
684.00	-0.012
683.80	-0.012
683.60	-0.012
683.40	-0.012
683.20	-0.013
683.00	-0.013
682.80	-0.012
682.60	-0.013
682.40	-0.013
682.20	-0.013
682.00	-0.013
681.80	-0.012
681.60	-0.012
681.40	-0.013
681.20	-0.013
681.00	-0.011
680.80	-0.012
680.60	-0.013
680.40	-0.012
680.20	-0.011
680.00	-0.012
679.80	-0.012
679.60	-0.013
679.40	-0.011
679.20	-0.012
679.00	-0.013
678.80	-0.012
678.60	-0.012
678.40	-0.013
678.20	-0.013
678.00	-0.012
677.80	-0.012
677.60	-0.011
677.40	-0.011
677.20	-0.012
677.00	-0.012
676.80	-0.011
676.60	-0.012
676.40	-0.012
676.20	-0.012
676.00	-0.012
675.80	-0.012
675.60	-0.013
675.40	-0.012
675.20	-0.012
675.00	-0.012
674.80	-0.012
674.60	-0.012
674.40	-0.013
674.20	-0.012
674.00	-0.012
673.80	-0.013
673.60	-0.012
673.40	-0.012
673.20	-0.012
673.00	-0.012
672.80	-0.012
672.60	-0.011
672.40	-0.012
672.20	-0.012
672.00	-0.012
671.80	-0.011
671.60	-0.012
671.40	-0.012
671.20	-0.012
671.00	-0.012
670.80	-0.012
670.60	-0.011
670.40	-0.012
670.20	-0.012
670.00	-0.011
669.80	-0.012
669.60	-0.012
669.40	-0.011
669.20	-0.011
669.00	-0.011
668.80	-0.011
668.60	-0.011
668.40	-0.012
668.20	-0.011
668.00	-0.011
667.80	-0.012
667.60	-0.011
667.40	-0.011
667.20	-0.011
667.00	-0.012
666.80	-0.012
666.60	-0.011
666.40	-0.011
666.20	-0.011
666.00	-0.011
665.80	-0.011
665.60	-0.011
665.40	-0.011
665.20	-0.011
665.00	-0.011
664.80	-0.011
664.60	-0.011
664.40	-0.012
664.20	-0.012
664.00	-0.011
663.80	-0.011
663.60	-0.011
663.40	-0.011
663.20	-0.011
663.00	-0.010
662.80	-0.011
662.60	-0.011
662.40	-0.011
662.20	-0.011
662.00	-0.011
661.80	-0.011
661.60	-0.011
661.40	-0.011
661.20	-0.011
661.00	-0.011
660.80	-0.011
660.60	-0.010
660.40	-0.010
660.20	-0.011
660.00	-0.011
659.80	-0.011
659.60	-0.011
659.40	-0.010
659.20	-0.011
659.00	-0.011
658.80	-0.010
658.60	-0.010
658.40	-0.011
658.20	-0.011
658.00	-0.011
657.80	-0.010
657.60	-0.011
657.40	-0.010
657.20	-0.010
657.00	-0.010
656.80	-0.009
656.60	-0.010
656.40	-0.010
656.20	-0.009
656.00	-0.009
655.80	-0.010
655.60	-0.010
655.40	-0.009
655.20	-0.009
655.00	-0.009
654.80	-0.009
654.60	-0.010
654.40	-0.009
654.20	-0.009
654.00	-0.009
653.80	-0.008
653.60	-0.009
653.40	-0.010
653.20	-0.008
653.00	-0.009
652.80	-0.009
652.60	-0.008
652.40	-0.009
652.20	-0.008
652.00	-0.009
651.80	-0.008
651.60	-0.008
651.40	-0.007
651.20	-0.007
651.00	-0.008
650.80	-0.008
650.60	-0.007
650.40	-0.008
650.20	-0.007
650.00	-0.007
649.80	-0.008
649.60	-0.008
649.40	-0.007
649.20	-0.006
649.00	-0.007
648.80	-0.006
648.60	-0.005
648.40	-0.007
648.20	-0.006
648.00	-0.007
647.80	-0.006
647.60	-0.005
647.40	-0.006
647.20	-0.006
647.00	-0.006
646.80	-0.005
646.60	-0.005
646.40	-0.004
646.20	-0.005
646.00	-0.004
645.80	-0.004
645.60	-0.005
645.40	-0.003
645.20	-0.005
645.00	-0.004
644.80	-0.004
644.60	-0.003
644.40	-0.002
644.20	-0.003
644.00	-0.002
643.80	-0.002
643.60	-0.002
643.40	-0.002
643.20	-0.003
643.00	-0.002
642.80	-0.001
642.60	-0.001
642.40	0.000
642.20	-0.001
642.00	0.000
641.80	-0.001
641.60	-0.001
641.40	0.000
641.20	0.001
641.00	0.001
640.80	0.001
640.60	0.002
640.40	0.002
640.20	0.002
640.00	0.002
639.80	0.003
639.60	0.004
639.40	0.003
639.20	0.004
639.00	0.005
638.80	0.004
638.60	0.005
638.40	0.005
638.20	0.005
638.00	0.006
637.80	0.007
637.60	0.007
637.40	0.007
637.20	0.008
637.00	0.007
636.80	0.008
636.60	0.009
636.40	0.009
636.20	0.009
636.00	0.011
635.80	0.011
635.60	0.011
635.40	0.012
635.20	0.012
635.00	0.013
634.80	0.013
634.60	0.014
634.40	0.015
634.20	0.015
634.00	0.015
633.80	0.016
633.60	0.017
633.40	0.018
633.20	0.018
633.00	0.019
632.80	0.019
632.60	0.020
632.40	0.020
632.20	0.021
632.00	0.022
631.80	0.023
631.60	0.024
631.40	0.024
631.20	0.025
631.00	0.026
630.80	0.026
630.60	0.028
630.40	0.028
630.20	0.030
630.00	0.030
629.80	0.031
629.60	0.033
629.40	0.033
629.20	0.034
629.00	0.035
628.80	0.036
628.60	0.036
628.40	0.038
628.20	0.039
628.00	0.040
627.80	0.041
627.60	0.042
627.40	0.043
627.20	0.044
627.00	0.046
626.80	0.048
626.60	0.048
626.40	0.048
626.20	0.050
626.00	0.052
625.80	0.052
625.60	0.054
625.40	0.055
625.20	0.057
625.00	0.059
624.80	0.059
624.60	0.061
624.40	0.062
624.20	0.064
624.00	0.066
623.80	0.067
623.60	0.068
623.40	0.071
623.20	0.073
623.00	0.073
622.80	0.075
622.60	0.078
622.40	0.079
622.20	0.080
622.00	0.082
621.80	0.085
621.60	0.086
621.40	0.089
621.20	0.090
621.00	0.093
620.80	0.095
620.60	0.098
620.40	0.100
620.20	0.102
620.00	0.103
619.80	0.106
619.60	0.108
619.40	0.110
619.20	0.114
619.00	0.115
618.80	0.117
618.60	0.120
618.40	0.123
618.20	0.124
618.00	0.127
617.80	0.131
617.60	0.133
617.40	0.135
617.20	0.138
617.00	0.141
616.80	0.143
616.60	0.147
616.40	0.149
616.20	0.152
616.00	0.155
615.80	0.157
615.60	0.161
615.40	0.164
615.20	0.166
615.00	0.171
614.80	0.172
614.60	0.174
614.40	0.179
614.20	0.182
614.00	0.185
613.80	0.188
613.60	0.192
613.40	0.195
613.20	0.199
613.00	0.202
612.80	0.206
612.60	0.210
612.40	0.213
612.20	0.217
612.00	0.221
611.80	0.224
611.60	0.228
611.40	0.232
611.20	0.236
611.00	0.240
610.80	0.245
610.60	0.248
610.40	0.252
610.20	0.256
610.00	0.260
609.80	0.266
609.60	0.267
609.40	0.272
609.20	0.276
609.00	0.281
608.80	0.284
608.60	0.289
608.40	0.293
608.20	0.297
608.00	0.301
607.80	0.305
607.60	0.309
607.40	0.313
607.20	0.318
607.00	0.322
606.80	0.326
606.60	0.331
606.40	0.334
606.20	0.339
606.00	0.342
605.80	0.346
605.60	0.351
605.40	0.355
605.20	0.358
605.00	0.362
604.80	0.366
604.60	0.371
604.40	0.375
604.20	0.380
604.00	0.383
603.80	0.387
603.60	0.391
603.40	0.395
603.20	0.399
603.00	0.402
602.80	0.407
602.60	0.410
602.40	0.415
602.20	0.418
602.00	0.421
601.80	0.426
601.60	0.430
601.40	0.433
601.20	0.436
601.00	0.441
600.80	0.444
600.60	0.448
600.40	0.451
600.20	0.455
600.00	0.458
599.80	0.461
599.60	0.464
599.40	0.467
599.20	0.471
599.00	0.474
598.80	0.476
598.60	0.479
598.40	0.482
598.20	0.485
598.00	0.487
597.80	0.490
597.60	0.492
597.40	0.493
597.20	0.497
597.00	0.498
596.80	0.501
596.60	0.503
596.40	0.505
596.20	0.507
596.00	0.509
595.80	0.511
595.60	0.512
595.40	0.514
595.20	0.515
595.00	0.517
594.80	0.516
594.60	0.519
594.40	0.521
594.20	0.520
594.00	0.522
593.80	0.522
593.60	0.524
593.40	0.525
593.20	0.526
593.00	0.526
592.80	0.528
592.60	0.527
592.40	0.527
592.20	0.528
592.00	0.528
591.80	0.529
591.60	0.529
591.40	0.528
591.20	0.528
591.00	0.528
590.80	0.527
590.60	0.528
590.40	0.527
590.20	0.526
590.00	0.527
589.80	0.526
589.60	0.526
589.40	0.526
589.20	0.525
589.00	0.524
588.80	0.523
588.60	0.521
588.40	0.519
588.20	0.519
588.00	0.519
587.80	0.516
587.60	0.515
587.40	0.514
587.20	0.514
587.00	0.511
586.80	0.511
586.60	0.509
586.40	0.507
586.20	0.506
586.00	0.504
585.80	0.503
585.60	0.501
585.40	0.500
585.20	0.497
585.00	0.496
584.80	0.494
584.60	0.493
584.40	0.490
584.20	0.489
584.00	0.488
583.80	0.484
583.60	0.482
583.40	0.480
583.20	0.479
583.00	0.476
582.80	0.474
582.60	0.472
582.40	0.472
582.20	0.469
582.00	0.466
581.80	0.464
581.60	0.461
581.40	0.459
581.20	0.457
581.00	0.455
580.80	0.452
580.60	0.450
580.40	0.448
580.20	0.445
580.00	0.443
579.80	0.441
579.60	0.438
579.40	0.438
579.20	0.434
579.00	0.431
578.80	0.429
578.60	0.428
578.40	0.425
578.20	0.423
578.00	0.420
577.80	0.419
577.60	0.416
577.40	0.414
577.20	0.411
577.00	0.409
576.80	0.407
576.60	0.406
576.40	0.403
576.20	0.400
576.00	0.398
575.80	0.398
575.60	0.395
575.40	0.392
575.20	0.391
575.00	0.388
574.80	0.387
574.60	0.385
574.40	0.382
574.20	0.380
574.00	0.378
573.80	0.377
573.60	0.375
573.40	0.373
573.20	0.370
573.00	0.368
572.80	0.367
572.60	0.365
572.40	0.363
572.20	0.361
572.00	0.359
571.80	0.357
571.60	0.356
571.40	0.352
571.20	0.352
571.00	0.349
570.80	0.347
570.60	0.346
570.40	0.344
570.20	0.343
570.00	0.341
569.80	0.338
569.60	0.338
569.40	0.335
569.20	0.334
569.00	0.331
568.80	0.329
568.60	0.328
568.40	0.327
568.20	0.325
568.00	0.323
567.80	0.323
567.60	0.320
567.40	0.319
567.20	0.318
567.00	0.316
566.80	0.315
566.60	0.313
566.40	0.312
566.20	0.310
566.00	0.310
565.80	0.307
565.60	0.307
565.40	0.305
565.20	0.304
565.00	0.303
564.80	0.301
564.60	0.300
564.40	0.298
564.20	0.298
564.00	0.296
563.80	0.295
563.60	0.294
563.40	0.293
563.20	0.291
563.00	0.291
562.80	0.289
562.60	0.288
562.40	0.286
562.20	0.285
562.00	0.284
561.80	0.283
561.60	0.281
561.40	0.280
561.20	0.280
561.00	0.280
560.80	0.277
560.60	0.275
560.40	0.275
560.20	0.274
560.00	0.273
559.80	0.271
559.60	0.271
559.40	0.269
559.20	0.268
559.00	0.268
558.80	0.267
558.60	0.266
558.40	0.265
558.20	0.264
558.00	0.261
557.80	0.261
557.60	0.261
557.40	0.259
557.20	0.258
557.00	0.257
556.80	0.257
556.60	0.255
556.40	0.255
556.20	0.253
556.00	0.252
555.80	0.251
555.60	0.251
555.40	0.249
555.20	0.250
555.00	0.248
554.80	0.247
554.60	0.246
554.40	0.246
554.20	0.245
554.00	0.243
553.80	0.243
553.60	0.242
553.40	0.241
553.20	0.240
553.00	0.240
552.80	0.237
552.60	0.237
552.40	0.237
552.20	0.235
552.00	0.236
551.80	0.234
551.60	0.233
551.40	0.232
551.20	0.230
551.00	0.231
550.80	0.229
550.60	0.228
550.40	0.226
550.20	0.226
550.00	0.226
549.80	0.224
549.60	0.224
549.40	0.222
549.20	0.221
549.00	0.221
548.80	0.220
548.60	0.219
548.40	0.218
548.20	0.217
548.00	0.216
547.80	0.216
547.60	0.216
547.40	0.214
547.20	0.212
547.00	0.212
546.80	0.211
546.60	0.210
546.40	0.209
546.20	0.208
546.00	0.208
545.80	0.206
545.60	0.206
545.40	0.204
545.20	0.204
545.00	0.203
544.80	0.202
544.60	0.200
544.40	0.200
544.20	0.200
544.00	0.198
543.80	0.197
543.60	0.196
543.40	0.195
543.20	0.195
543.00	0.194
542.80	0.193
542.60	0.192
542.40	0.192
542.20	0.190
542.00	0.189
541.80	0.189
541.60	0.188
541.40	0.187
541.20	0.186
541.00	0.185
540.80	0.185
540.60	0.183
540.40	0.182
540.20	0.181
540.00	0.181
539.80	0.180
539.60	0.178
539.40	0.178
539.20	0.177
539.00	0.176
538.80	0.175
538.60	0.174
538.40	0.173
538.20	0.173
538.00	0.171
537.80	0.171
537.60	0.170
537.40	0.169
537.20	0.168
537.00	0.167
536.80	0.166
536.60	0.166
536.40	0.165
536.20	0.164
536.00	0.164
535.80	0.163
535.60	0.162
535.40	0.160
535.20	0.160
535.00	0.160
534.80	0.159
534.60	0.157
534.40	0.156
534.20	0.156
534.00	0.155
533.80	0.154
533.60	0.153
533.40	0.153
533.20	0.152
533.00	0.151
532.80	0.151
532.60	0.150
532.40	0.150
532.20	0.148
532.00	0.147
531.80	0.147
531.60	0.147
531.40	0.145
531.20	0.144
531.00	0.150
530.80	0.150
530.60	0.148
530.40	0.148
530.20	0.147
530.00	0.146
529.80	0.145
529.60	0.144
529.40	0.144
529.20	0.143
529.00	0.142
528.80	0.142
528.60	0.142
528.40	0.141
528.20	0.141
528.00	0.138
527.80	0.140
527.60	0.137
527.40	0.137
527.20	0.136
527.00	0.137
526.80	0.136
526.60	0.134
526.40	0.134
526.20	0.132
526.00	0.133
525.80	0.132
525.60	0.132
525.40	0.131
525.20	0.131
525.00	0.129
524.80	0.130
524.60	0.130
524.40	0.128
524.20	0.127
524.00	0.127
523.80	0.127
523.60	0.127
523.40	0.126
523.20	0.123
523.00	0.124
522.80	0.123
522.60	0.124
522.40	0.122
522.20	0.121
522.00	0.122
521.80	0.121
521.60	0.120
521.40	0.120
521.20	0.120
521.00	0.119
520.80	0.118
520.60	0.117
520.40	0.118
520.20	0.115
520.00	0.116
519.80	0.115
519.60	0.115
519.40	0.115
519.20	0.114
519.00	0.114
518.80	0.113
518.60	0.112
518.40	0.112
518.20	0.111
518.00	0.111
517.80	0.110
517.60	0.109
517.40	0.109
517.20	0.110
517.00	0.107
516.80	0.109
516.60	0.108
516.40	0.107
516.20	0.107
516.00	0.106
515.80	0.106
515.60	0.106
515.40	0.104
515.20	0.104
515.00	0.104
514.80	0.104
514.60	0.105
514.40	0.103
514.20	0.103
514.00	0.103
513.80	0.103
513.60	0.102
513.40	0.101
513.20	0.102
513.00	0.100
512.80	0.099
512.60	0.099
512.40	0.100
512.20	0.100
512.00	0.098
511.80	0.098
511.60	0.098
511.40	0.097
511.20	0.097
511.00	0.096
510.80	0.095
510.60	0.097
510.40	0.096
510.20	0.096
510.00	0.095
509.80	0.096
509.60	0.095
509.40	0.094
509.20	0.093
509.00	0.094
508.80	0.093
508.60	0.093
508.40	0.092
508.20	0.092
508.00	0.091
507.80	0.092
507.60	0.092
507.40	0.092
507.20	0.091
507.00	0.091
506.80	0.090
506.60	0.090
506.40	0.089
506.20	0.089
506.00	0.091
505.80	0.089
505.60	0.088
505.40	0.088
505.20	0.087
505.00	0.088
504.80	0.087
504.60	0.086
504.40	0.088
504.20	0.087
504.00	0.086
503.80	0.086
503.60	0.086
503.40	0.086
503.20	0.086
503.00	0.085
502.80	0.086
502.60	0.085
502.40	0.086
502.20	0.085
502.00	0.084
501.80	0.085
501.60	0.085
501.40	0.085
501.20	0.083
501.00	0.083
500.80	0.082
500.60	0.084
500.40	0.083
500.20	0.081
500.00	0.084
499.80	0.082
499.60	0.083
499.40	0.082
499.20	0.082
499.00	0.082
498.80	0.082
498.60	0.081
498.40	0.082
498.20	0.081
498.00	0.081
497.80	0.079
497.60	0.079
497.40	0.082
497.20	0.081
497.00	0.080
496.80	0.080
496.60	0.078
496.40	0.081
496.20	0.080
496.00	0.080
495.80	0.080
495.60	0.080
495.40	0.078
495.20	0.079
495.00	0.080
494.80	0.078
494.60	0.079
494.40	0.079
494.20	0.079
494.00	0.080
493.80	0.078
493.60	0.078
493.40	0.078
493.20	0.078
493.00	0.078
492.80	0.078
492.60	0.078
492.40	0.077
492.20	0.078
492.00	0.079
491.80	0.078
491.60	0.077
491.40	0.077
491.20	0.077
491.00	0.077
490.80	0.078
490.60	0.076
490.40	0.077
490.20	0.077
490.00	0.076
489.80	0.076
489.60	0.077
489.40	0.078
489.20	0.077
489.00	0.076
488.80	0.076
488.60	0.077
488.40	0.077
488.20	0.076
488.00	0.076
487.80	0.077
487.60	0.076
487.40	0.076
487.20	0.075
487.00	0.076
486.80	0.076
486.60	0.077
486.40	0.076
486.20	0.077
486.00	0.077
485.80	0.075
485.60	0.076
485.40	0.076
485.20	0.076
485.00	0.075
484.80	0.075
484.60	0.076
484.40	0.077
484.20	0.075
484.00	0.076
483.80	0.077
483.60	0.077
483.40	0.076
483.20	0.075
483.00	0.075
482.80	0.075
482.60	0.074
482.40	0.076
482.20	0.077
482.00	0.074
481.80	0.075
481.60	0.074
481.40	0.075
481.20	0.075
481.00	0.075
480.80	0.075
480.60	0.075
480.40	0.076
480.20	0.076
480.00	0.077
479.80	0.075
479.60	0.076
479.40	0.075
479.20	0.076
479.00	0.075
478.80	0.077
478.60	0.076
478.40	0.076
478.20	0.076
478.00	0.076
477.80	0.076
477.60	0.076
477.40	0.076
477.20	0.077
477.00	0.076
476.80	0.077
476.60	0.076
476.40	0.075
476.20	0.077
476.00	0.076
475.80	0.075
475.60	0.076
475.40	0.076
475.20	0.077
475.00	0.076
474.80	0.077
474.60	0.077
474.40	0.075
474.20	0.077
474.00	0.077
473.80	0.076
473.60	0.076
473.40	0.076
473.20	0.076
473.00	0.077
472.80	0.077
472.60	0.076
472.40	0.076
472.20	0.078
472.00	0.077
471.80	0.078
471.60	0.078
471.40	0.078
471.20	0.076
471.00	0.078
470.80	0.077
470.60	0.077
470.40	0.077
470.20	0.078
470.00	0.078
469.80	0.079
469.60	0.078
469.40	0.078
469.20	0.079
469.00	0.078
468.80	0.078
468.60	0.078
468.40	0.077
468.20	0.078
468.00	0.079
467.80	0.078
467.60	0.080
467.40	0.077
467.20	0.076
467.00	0.078
466.80	0.080
466.60	0.078
466.40	0.078
466.20	0.078
466.00	0.078
465.80	0.078
465.60	0.078
465.40	0.080
465.20	0.079
465.00	0.079
464.80	0.076
464.60	0.079
464.40	0.080
464.20	0.079
464.00	0.080
463.80	0.078
463.60	0.078
463.40	0.078
463.20	0.080
463.00	0.079
462.80	0.079
462.60	0.079
462.40	0.081
462.20	0.080
462.00	0.079
461.80	0.079
461.60	0.079
461.40	0.080
461.20	0.079
461.00	0.079
460.80	0.080
460.60	0.082
460.40	0.079
460.20	0.079
460.00	0.082
459.80	0.081
459.60	0.079
459.40	0.078
459.20	0.081
459.00	0.079
458.80	0.082
458.60	0.080
458.40	0.081
458.20	0.081
458.00	0.080
457.80	0.081
457.60	0.080
457.40	0.081
457.20	0.081
457.00	0.080
456.80	0.081
456.60	0.078
456.40	0.079
456.20	0.081
456.00	0.080
455.80	0.082
455.60	0.081
455.40	0.081
455.20	0.080
455.00	0.081
454.80	0.080
454.60	0.080
454.40	0.080
454.20	0.081
454.00	0.081
453.80	0.082
453.60	0.081
453.40	0.082
453.20	0.082
453.00	0.082
452.80	0.083
452.60	0.081
452.40	0.080
452.20	0.081
452.00	0.082
451.80	0.079
451.60	0.081
451.40	0.082
451.20	0.082
451.00	0.083
450.80	0.081
450.60	0.082
450.40	0.081
450.20	0.081
450.00	0.082
449.80	0.082
449.60	0.080
449.40	0.082
449.20	0.080
449.00	0.081
448.80	0.083
448.60	0.081
448.40	0.081
448.20	0.083
448.00	0.083
447.80	0.080
447.60	0.080
447.40	0.081
447.20	0.083
447.00	0.079
446.80	0.081
446.60	0.081
446.40	0.079
446.20	0.084
446.00	0.079
445.80	0.082
445.60	0.080
445.40	0.082
445.20	0.080
445.00	0.081
444.80	0.081
444.60	0.079
444.40	0.081
444.20	0.080
444.00	0.081
443.80	0.081
443.60	0.079
443.40	0.080
443.20	0.081
443.00	0.080
442.80	0.082
442.60	0.079
442.40	0.080
442.20	0.080
442.00	0.082
441.80	0.080
441.60	0.080
441.40	0.080
441.20	0.079
441.00	0.079
440.80	0.079
440.60	0.080
440.40	0.079
440.20	0.079
440.00	0.080
439.80	0.079
439.60	0.077
439.40	0.079
439.20	0.079
439.00	0.078
438.80	0.079
438.60	0.076
438.40	0.079
438.20	0.079
438.00	0.077
437.80	0.078
437.60	0.079
437.40	0.080
437.20	0.079
437.00	0.078
436.80	0.078
436.60	0.077
436.40	0.077
436.20	0.076
436.00	0.079
435.80	0.079
435.60	0.077
435.40	0.079
435.20	0.077
435.00	0.077
434.80	0.079
434.60	0.079
434.40	0.079
434.20	0.074
434.00	0.077
433.80	0.076
433.60	0.076
433.40	0.077
433.20	0.076
433.00	0.077
432.80	0.077
432.60	0.077
432.40	0.077
432.20	0.076
432.00	0.077
431.80	0.076
431.60	0.076
431.40	0.076
431.20	0.077
431.00	0.075
430.80	0.075
430.60	0.074
430.40	0.076
430.20	0.074
430.00	0.077
429.80	0.076
429.60	0.075
429.40	0.074
429.20	0.075
429.00	0.076
428.80	0.075
428.60	0.075
428.40	0.075
428.20	0.074
428.00	0.073
427.80	0.074
427.60	0.074
427.40	0.073
427.20	0.072
427.00	0.073
426.80	0.074
426.60	0.074
426.40	0.075
426.20	0.073
426.00	0.074
425.80	0.072
425.60	0.072
425.40	0.071
425.20	0.071
425.00	0.071
424.80	0.072
424.60	0.072
424.40	0.070
424.20	0.071
424.00	0.071
423.80	0.072
423.60	0.071
423.40	0.072
423.20	0.072
423.00	0.070
422.80	0.069
422.60	0.071
422.40	0.070
422.20	0.071
422.00	0.062
421.80	0.063
421.60	0.063
421.40	0.062
421.20	0.062
421.00	0.063
420.80	0.064
420.60	0.059
420.40	0.061
420.20	0.062
420.00	0.063
419.80	0.062
419.60	0.061
419.40	0.062
419.20	0.061
419.00	0.060
418.80	0.062
418.60	0.061
418.40	0.061
418.20	0.061
418.00	0.060
417.80	0.061
417.60	0.060
417.40	0.060
417.20	0.060
417.00	0.061
416.80	0.060
416.60	0.059
416.40	0.061
416.20	0.060
416.00	0.060
415.80	0.060
415.60	0.060
415.40	0.060
415.20	0.059
415.00	0.059
414.80	0.060
414.60	0.060
414.40	0.061
414.20	0.060
414.00	0.060
413.80	0.058
413.60	0.059
413.40	0.058
413.20	0.058
413.00	0.059
412.80	0.061
412.60	0.059
412.40	0.058
412.20	0.059
412.00	0.060
411.80	0.061
411.60	0.059
411.40	0.061
411.20	0.061
411.00	0.057
410.80	0.060
410.60	0.060
410.40	0.060
410.20	0.059
410.00	0.060
409.80	0.059
409.60	0.059
409.40	0.060
409.20	0.059
409.00	0.061
408.80	0.060
408.60	0.059
408.40	0.059
408.20	0.060
408.00	0.060
407.80	0.060
407.60	0.061
407.40	0.061
407.20	0.059
407.00	0.058
406.80	0.059
406.60	0.062
406.40	0.060
406.20	0.061
406.00	0.062
405.80	0.060
405.60	0.060
405.40	0.061
405.20	0.061
405.00	0.060
404.80	0.062
404.60	0.061
404.40	0.062
404.20	0.060
404.00	0.061
403.80	0.063
403.60	0.063
403.40	0.061
403.20	0.063
403.00	0.062
402.80	0.062
402.60	0.064
402.40	0.064
402.20	0.062
402.00	0.064
401.80	0.064
401.60	0.062
401.40	0.064
401.20	0.064
401.00	0.066
400.80	0.063
400.60	0.066
400.40	0.062
400.20	0.067
400.00	0.065
