nm	Abs
700.00	-0.012
699.80	-0.011
699.60	-0.012
699.40	-0.012
699.20	-0.011
699.00	-0.012
698.80	-0.013
698.60	-0.012
698.40	-0.011
698.20	-0.012
698.00	-0.013
697.80	-0.013
697.60	-0.012
697.40	-0.012
697.20	-0.012
697.00	-0.012
696.80	-0.011
696.60	-0.012
696.40	-0.012
696.20	-0.012
696.00	-0.011
695.80	-0.012
695.60	-0.011
695.40	-0.011
695.20	-0.012
695.00	-0.012
694.80	-0.012
694.60	-0.012
694.40	-0.011
694.20	-0.011
694.00	-0.012
693.80	-0.012
693.60	-0.012
693.40	-0.012
693.20	-0.011
693.00	-0.012
692.80	-0.011
692.60	-0.012
692.40	-0.013
692.20	-0.011
692.00	-0.011
691.80	-0.013
691.60	-0.012
691.40	-0.012
691.20	-0.012
691.00	-0.013
690.80	-0.012
690.60	-0.011
690.40	-0.013
690.20	-0.012
690.00	-0.012
689.80	-0.012
689.60	-0.012
689.40	-0.013
689.20	-0.011
689.00	-0.011
688.80	-0.012
688.60	-0.012
688.40	-0.012
688.20	-0.012
688.00	-0.012
687.80	-0.012
687.60	-0.012
687.40	-0.011
687.20	-0.012
687.00	-0.012
686.80	-0.012
686.60	-0.012
686.40	-0.012
686.20	-0.013
686.00	-0.012
685.80	-0.012
685.60	-0.012
685.40	-0.012
685.20	-0.011
685.00	-0.013
684.80	-0.012
684.60	-0.012
684.40	-0.012
684.20	-0.012
684.00	-0.012
683.80	-0.012
683.60	-0.012
683.40	-0.012
683.20	-0.012
683.00	-0.012
682.80	-0.013
682.60	-0.013
682.40	-0.013
682.20	-0.012
682.00	-0.013
681.80	-0.013
681.60	-0.012
681.40	-0.012
681.20	-0.013
681.00	-0.012
680.80	-0.012
680.60	-0.012
680.40	-0.012
680.20	-0.012
680.00	-0.012
679.80	-0.013
679.60	-0.012
679.40	-0.012
679.20	-0.012
679.00	-0.012
678.80	-0.011
678.60	-0.012
678.40	-0.013
678.20	-0.012
678.00	-0.012
677.80	-0.012
677.60	-0.012
677.40	-0.012
677.20	-0.011
677.00	-0.012
676.80	-0.011
676.60	-0.012
676.40	-0.012
676.20	-0.011
676.00	-0.012
675.80	-0.013
675.60	-0.012
675.40	-0.012
675.20	-0.013
675.00	-0.012
674.80	-0.012
674.60	-0.012
674.40	-0.013
674.20	-0.012
674.00	-0.013
673.80	-0.012
673.60	-0.012
673.40	-0.012
673.20	-0.013
673.00	-0.012
672.80	-0.012
672.60	-0.012
672.40	-0.012
672.20	-0.012
672.00	-0.011
671.80	-0.011
671.60	-0.012
671.40	-0.012
671.20	-0.012
671.00	-0.013
670.80	-0.013
670.60	-0.013
670.40	-0.012
670.20	-0.012
670.00	-0.012
669.80	-0.012
669.60	-0.012
669.40	-0.012
669.20	-0.012
669.00	-0.012
668.80	-0.012
668.60	-0.012
668.40	-0.012
668.20	-0.012
668.00	-0.013
667.80	-0.012
667.60	-0.012
667.40	-0.013
667.20	-0.012
667.00	-0.012
666.80	-0.013
666.60	-0.012
666.40	-0.012
666.20	-0.012
666.00	-0.012
665.80	-0.013
665.60	-0.012
665.40	-0.012
665.20	-0.012
665.00	-0.012
664.80	-0.012
664.60	-0.012
664.40	-0.013
664.20	-0.013
664.00	-0.012
663.80	-0.012
663.60	-0.012
663.40	-0.013
663.20	-0.012
663.00	-0.012
662.80	-0.013
662.60	-0.012
662.40	-0.012
662.20	-0.012
662.00	-0.012
661.80	-0.012
661.60	-0.012
661.40	-0.012
661.20	-0.012
661.00	-0.013
660.80	-0.013
660.60	-0.011
660.40	-0.013
660.20	-0.013
660.00	-0.012
659.80	-0.012
659.60	-0.012
659.40	-0.013
659.20	-0.013
659.00	-0.012
658.80	-0.011
658.60	-0.012
658.40	-0.013
658.20	-0.012
658.00	-0.013
657.80	-0.012
657.60	-0.013
657.40	-0.012
657.20	-0.012
657.00	-0.012
656.80	-0.013
656.60	-0.012
656.40	-0.012
656.20	-0.012
656.00	-0.012
655.80	-0.013
655.60	-0.012
655.40	-0.013
655.20	-0.012
655.00	-0.013
654.80	-0.012
654.60	-0.012
654.40	-0.013
654.20	-0.013
654.00	-0.011
653.80	-0.012
653.60	-0.012
653.40	-0.012
653.20	-0.012
653.00	-0.013
652.80	-0.012
652.60	-0.012
652.40	-0.013
652.20	-0.012
652.00	-0.013
651.80	-0.012
651.60	-0.012
651.40	-0.011
651.20	-0.012
651.00	-0.012
650.80	-0.013
650.60	-0.012
650.40	-0.012
650.20	-0.012
650.00	-0.012
649.80	-0.013
649.60	-0.012
649.40	-0.012
649.20	-0.011
649.00	-0.012
648.80	-0.012
648.60	-0.012
648.40	-0.013
648.20	-0.012
648.00	-0.013
647.80	-0.013
647.60	-0.012
647.40	-0.012
647.20	-0.012
647.00	-0.012
646.80	-0.011
646.60	-0.012
646.40	-0.011
646.20	-0.012
646.00	-0.012
645.80	-0.012
645.60	-0.012
645.40	-0.012
645.20	-0.012
645.00	-0.012
644.80	-0.012
644.60	-0.012
644.40	-0.012
644.20	-0.013
644.00	-0.012
643.80	-0.013
643.60	-0.012
643.40	-0.012
643.20	-0.013
643.00	-0.013
642.80	-0.012
642.60	-0.012
642.40	-0.013
642.20	-0.013
642.00	-0.012
641.80	-0.013
641.60	-0.013
641.40	-0.012
641.20	-0.013
641.00	-0.013
640.80	-0.012
640.60	-0.012
640.40	-0.012
640.20	-0.013
640.00	-0.013
639.80	-0.013
639.60	-0.012
639.40	-0.013
639.20	-0.013
639.00	-0.012
638.80	-0.013
638.60	-0.012
638.40	-0.012
638.20	-0.012
638.00	-0.013
637.80	-0.012
637.60	-0.012
637.40	-0.012
637.20	-0.012
637.00	-0.012
636.80	-0.013
636.60	-0.013
636.40	-0.012
636.20	-0.012
636.00	-0.012
635.80	-0.012
635.60	-0.012
635.40	-0.012
635.20	-0.012
635.00	-0.012
634.80	-0.013
634.60	-0.013
634.40	-0.011
634.20	-0.012
634.00	-0.013
633.80	-0.013
633.60	-0.012
633.40	-0.012
633.20	-0.012
633.00	-0.013
632.80	-0.013
632.60	-0.012
632.40	-0.013
632.20	-0.012
632.00	-0.012
631.80	-0.012
631.60	-0.012
631.40	-0.012
631.20	-0.012
631.00	-0.012
630.80	-0.013
630.60	-0.012
630.40	-0.012
630.20	-0.012
630.00	-0.013
629.80	-0.013
629.60	-0.011
629.40	-0.013
629.20	-0.012
629.00	-0.012
628.80	-0.012
628.60	-0.013
628.40	-0.012
628.20	-0.012
628.00	-0.013
627.80	-0.013
627.60	-0.012
627.40	-0.013
627.20	-0.013
627.00	-0.012
626.80	-0.012
626.60	-0.013
626.40	-0.012
626.20	-0.013
626.00	-0.012
625.80	-0.013
625.60	-0.013
625.40	-0.013
625.20	-0.012
625.00	-0.012
624.80	-0.012
624.60	-0.012
624.40	-0.012
624.20	-0.012
624.00	-0.012
623.80	-0.012
623.60	-0.012
623.40	-0.012
623.20	-0.011
623.00	-0.013
622.80	-0.013
622.60	-0.012
622.40	-0.013
622.20	-0.012
622.00	-0.012
621.80	-0.013
621.60	-0.013
621.40	-0.012
621.20	-0.013
621.00	-0.012
620.80	-0.012
620.60	-0.012
620.40	-0.012
620.20	-0.012
620.00	-0.012
619.80	-0.011
619.60	-0.012
619.40	-0.012
619.20	-0.012
619.00	-0.011
618.80	-0.012
618.60	-0.013
618.40	-0.012
618.20	-0.012
618.00	-0.013
617.80	-0.012
617.60	-0.012
617.40	-0.012
617.20	-0.012
617.00	-0.012
616.80	-0.012
616.60	-0.012
616.40	-0.012
616.20	-0.012
616.00	-0.012
615.80	-0.012
615.60	-0.012
615.40	-0.011
615.20	-0.013
615.00	-0.012
614.80	-0.013
614.60	-0.013
614.40	-0.013
614.20	-0.012
614.00	-0.012
613.80	-0.012
613.60	-0.012
613.40	-0.011
613.20	-0.012
613.00	-0.013
612.80	-0.012
612.60	-0.012
612.40	-0.012
612.20	-0.013
612.00	-0.011
611.80	-0.013
611.60	-0.012
611.40	-0.013
611.20	-0.012
611.00	-0.012
610.80	-0.012
610.60	-0.012
610.40	-0.012
610.20	-0.012
610.00	-0.012
609.80	-0.011
609.60	-0.013
609.40	-0.012
609.20	-0.012
609.00	-0.012
608.80	-0.012
608.60	-0.012
608.40	-0.012
608.20	-0.012
608.00	-0.012
607.80	-0.012
607.60	-0.012
607.40	-0.012
607.20	-0.012
607.00	-0.012
606.80	-0.012
606.60	-0.012
606.40	-0.012
606.20	-0.011
606.00	-0.012
605.80	-0.012
605.60	-0.012
605.40	-0.012
605.20	-0.012
605.00	-0.012
604.80	-0.012
604.60	-0.011
604.40	-0.012
604.20	-0.012
604.00	-0.012
603.80	-0.012
603.60	-0.012
603.40	-0.012
603.20	-0.011
603.00	-0.012
602.80	-0.012
602.60	-0.012
602.40	-0.011
602.20	-0.012
602.00	-0.012
601.80	-0.011
601.60	-0.011
601.40	-0.011
601.20	-0.012
601.00	-0.012
600.80	-0.012
600.60	-0.011
600.40	-0.012
600.20	-0.012
600.00	-0.011
599.80	-0.012
599.60	-0.012
599.40	-0.012
599.20	-0.012
599.00	-0.012
598.80	-0.011
598.60	-0.012
598.40	-0.012
598.20	-0.011
598.00	-0.011
597.80	-0.011
597.60	-0.012
597.40	-0.012
597.20	-0.012
597.00	-0.012
596.80	-0.011
596.60	-0.012
596.40	-0.012
596.20	-0.012
596.00	-0.011
595.80	-0.011
595.60	-0.011
595.40	-0.011
595.20	-0.012
595.00	-0.011
594.80	-0.012
594.60	-0.011
594.40	-0.012
594.20	-0.012
594.00	-0.011
593.80	-0.012
593.60	-0.011
593.40	-0.012
593.20	-0.012
593.00	-0.012
592.80	-0.010
592.60	-0.011
592.40	-0.012
592.20	-0.012
592.00	-0.012
591.80	-0.011
591.60	-0.012
591.40	-0.011
591.20	-0.012
591.00	-0.012
590.80	-0.012
590.60	-0.011
590.40	-0.012
590.20	-0.012
590.00	-0.012
589.80	-0.012
589.60	-0.011
589.40	-0.011
589.20	-0.011
589.00	-0.011
588.80	-0.012
588.60	-0.012
588.40	-0.011
588.20	-0.011
588.00	-0.011
587.80	-0.012
587.60	-0.012
587.40	-0.012
587.20	-0.012
587.00	-0.012
586.80	-0.011
586.60	-0.011
586.40	-0.011
586.20	-0.010
586.00	-0.011
585.80	-0.012
585.60	-0.011
585.40	-0.011
585.20	-0.012
585.00	-0.012
584.80	-0.011
584.60	-0.011
584.40	-0.011
584.20	-0.012
584.00	-0.011
583.80	-0.011
583.60	-0.011
583.40	-0.012
583.20	-0.011
583.00	-0.011
582.80	-0.012
582.60	-0.011
582.40	-0.011
582.20	-0.011
582.00	-0.011
581.80	-0.011
581.60	-0.011
581.40	-0.011
581.20	-0.011
581.00	-0.012
580.80	-0.011
580.60	-0.011
580.40	-0.011
580.20	-0.012
580.00	-0.011
579.80	-0.011
579.60	-0.012
579.40	-0.011
579.20	-0.011
579.00	-0.012
578.80	-0.011
578.60	-0.011
578.40	-0.011
578.20	-0.011
578.00	-0.012
577.80	-0.011
577.60	-0.012
577.40	-0.012
577.20	-0.012
577.00	-0.011
576.80	-0.011
576.60	-0.011
576.40	-0.012
576.20	-0.012
576.00	-0.012
575.80	-0.012
575.60	-0.011
575.40	-0.011
575.20	-0.012
575.00	-0.011
574.80	-0.012
574.60	-0.011
574.40	-0.011
574.20	-0.011
574.00	-0.012
573.80	-0.011
573.60	-0.011
573.40	-0.011
573.20	-0.011
573.00	-0.012
572.80	-0.011
572.60	-0.012
572.40	-0.012
572.20	-0.011
572.00	-0.012
571.80	-0.011
571.60	-0.011
571.40	-0.011
571.20	-0.011
571.00	-0.012
570.80	-0.011
570.60	-0.012
570.40	-0.010
570.20	-0.011
570.00	-0.011
569.80	-0.012
569.60	-0.011
569.40	-0.011
569.20	-0.011
569.00	-0.012
568.80	-0.012
568.60	-0.012
568.40	-0.011
568.20	-0.012
568.00	-0.012
567.80	-0.011
567.60	-0.012
567.40	-0.011
567.20	-0.012
567.00	-0.011
566.80	-0.011
566.60	-0.011
566.40	-0.011
566.20	-0.011
566.00	-0.011
565.80	-0.011
565.60	-0.011
565.40	-0.011
565.20	-0.011
565.00	-0.011
564.80	-0.011
564.60	-0.011
564.40	-0.011
564.20	-0.010
564.00	-0.011
563.80	-0.010
563.60	-0.011
563.40	-0.011
563.20	-0.010
563.00	-0.010
562.80	-0.011
562.60	-0.010
562.40	-0.011
562.20	-0.011
562.00	-0.010
561.80	-0.010
561.60	-0.011
561.40	-0.010
561.20	-0.010
561.00	-0.010
560.80	-0.011
560.60	-0.010
560.40	-0.011
560.20	-0.010
560.00	-0.011
559.80	-0.010
559.60	-0.010
559.40	-0.010
559.20	-0.010
559.00	-0.010
558.80	-0.009
558.60	-0.010
558.40	-0.009
558.20	-0.010
558.00	-0.010
557.80	-0.010
557.60	-0.009
557.40	-0.010
557.20	-0.010
557.00	-0.010
556.80	-0.009
556.60	-0.010
556.40	-0.010
556.20	-0.009
556.00	-0.009
555.80	-0.010
555.60	-0.009
555.40	-0.010
555.20	-0.009
555.00	-0.009
554.80	-0.010
554.60	-0.010
554.40	-0.009
554.20	-0.009
554.00	-0.009
553.80	-0.009
553.60	-0.008
553.40	-0.008
553.20	-0.009
553.00	-0.008
552.80	-0.010
552.60	-0.009
552.40	-0.008
552.20	-0.008
552.00	-0.008
551.80	-0.008
551.60	-0.008
551.40	-0.009
551.20	-0.009
551.00	-0.008
550.80	-0.009
550.60	-0.008
550.40	-0.009
550.20	-0.009
550.00	-0.008
549.80	-0.008
549.60	-0.008
549.40	-0.009
549.20	-0.008
549.00	-0.007
548.80	-0.008
548.60	-0.008
548.40	-0.007
548.20	-0.008
548.00	-0.008
547.80	-0.006
547.60	-0.006
547.40	-0.006
547.20	-0.007
547.00	-0.007
546.80	-0.006
546.60	-0.007
546.40	-0.007
546.20	-0.007
546.00	-0.006
545.80	-0.007
545.60	-0.006
545.40	-0.007
545.20	-0.006
545.00	-0.006
544.80	-0.006
544.60	-0.006
544.40	-0.006
544.20	-0.005
544.00	-0.006
543.80	-0.006
543.60	-0.007
543.40	-0.005
543.20	-0.005
543.00	-0.005
542.80	-0.005
542.60	-0.005
542.40	-0.006
542.20	-0.006
542.00	-0.005
541.80	-0.004
541.60	-0.005
541.40	-0.005
541.20	-0.005
541.00	-0.004
540.80	-0.003
540.60	-0.005
540.40	-0.006
540.20	-0.005
540.00	-0.003
539.80	-0.004
539.60	-0.004
539.40	-0.004
539.20	-0.002
539.00	-0.003
538.80	-0.003
538.60	-0.002
538.40	-0.002
538.20	-0.003
538.00	-0.002
537.80	-0.002
537.60	-0.002
537.40	-0.002
537.20	-0.002
537.00	-0.002
536.80	-0.002
536.60	-0.001
536.40	-0.002
536.20	-0.001
536.00	-0.001
535.80	-0.001
535.60	-0.002
535.40	-0.002
535.20	0.000
535.00	0.000
534.80	0.000
534.60	0.000
534.40	-0.001
534.20	0.001
534.00	0.000
533.80	0.001
533.60	0.000
533.40	0.001
533.20	0.001
533.00	0.001
532.80	0.001
532.60	0.002
532.40	0.002
532.20	0.002
532.00	0.001
531.80	0.001
531.60	0.002
531.40	0.002
531.20	0.003
531.00	0.010
530.80	0.009
530.60	0.010
530.40	0.009
530.20	0.011
530.00	0.011
529.80	0.009
529.60	0.010
529.40	0.011
529.20	0.011
529.00	0.011
528.80	0.010
528.60	0.012
528.40	0.011
528.20	0.013
528.00	0.011
527.80	0.013
527.60	0.013
527.40	0.014
527.20	0.013
527.00	0.014
526.80	0.015
526.60	0.014
526.40	0.014
526.20	0.014
526.00	0.015
525.80	0.016
525.60	0.016
525.40	0.015
525.20	0.015
525.00	0.016
524.80	0.016
524.60	0.016
524.40	0.017
524.20	0.017
524.00	0.017
523.80	0.017
523.60	0.018
523.40	0.019
523.20	0.017
523.00	0.018
522.80	0.019
522.60	0.019
522.40	0.020
522.20	0.019
522.00	0.019
521.80	0.021
521.60	0.020
521.40	0.021
521.20	0.020
521.00	0.023
520.80	0.022
520.60	0.022
520.40	0.022
520.20	0.022
520.00	0.023
519.80	0.024
519.60	0.023
519.40	0.024
519.20	0.023
519.00	0.024
518.80	0.025
518.60	0.025
518.40	0.025
518.20	0.026
518.00	0.026
517.80	0.027
517.60	0.025
517.40	0.027
517.20	0.027
517.00	0.028
516.80	0.028
516.60	0.029
516.40	0.028
516.20	0.030
516.00	0.029
515.80	0.029
515.60	0.030
515.40	0.029
515.20	0.032
515.00	0.031
514.80	0.031
514.60	0.032
514.40	0.032
514.20	0.033
514.00	0.033
513.80	0.034
513.60	0.033
513.40	0.034
513.20	0.035
513.00	0.035
512.80	0.035
512.60	0.036
512.40	0.036
512.20	0.036
512.00	0.037
511.80	0.037
511.60	0.039
511.40	0.038
511.20	0.039
511.00	0.039
510.80	0.038
510.60	0.041
510.40	0.040
510.20	0.041
510.00	0.041
509.80	0.042
509.60	0.042
509.40	0.042
509.20	0.043
509.00	0.043
508.80	0.043
508.60	0.046
508.40	0.045
508.20	0.046
508.00	0.046
507.80	0.047
507.60	0.047
507.40	0.047
507.20	0.047
507.00	0.047
506.80	0.049
506.60	0.049
506.40	0.050
506.20	0.050
506.00	0.052
505.80	0.051
505.60	0.052
505.40	0.052
505.20	0.053
505.00	0.054
504.80	0.054
504.60	0.053
504.40	0.055
504.20	0.055
504.00	0.055
503.80	0.057
503.60	0.056
503.40	0.057
503.20	0.057
503.00	0.058
502.80	0.059
502.60	0.058
502.40	0.060
502.20	0.060
502.00	0.061
501.80	0.061
501.60	0.062
501.40	0.064
501.20	0.062
501.00	0.064
500.80	0.063
500.60	0.065
500.40	0.066
500.20	0.065
500.00	0.068
499.80	0.066
499.60	0.067
499.40	0.068
499.20	0.069
499.00	0.069
498.80	0.071
498.60	0.070
498.40	0.072
498.20	0.071
498.00	0.073
497.80	0.073
497.60	0.073
497.40	0.074
497.20	0.075
497.00	0.076
496.80	0.076
496.60	0.077
496.40	0.077
496.20	0.078
496.00	0.078
495.80	0.081
495.60	0.079
495.40	0.079
495.20	0.082
495.00	0.081
494.80	0.082
494.60	0.082
494.40	0.083
494.20	0.082
494.00	0.085
493.80	0.086
493.60	0.086
493.40	0.087
493.20	0.087
493.00	0.088
492.80	0.088
492.60	0.089
492.40	0.090
492.20	0.091
492.00	0.091
491.80	0.091
491.60	0.094
491.40	0.094
491.20	0.093
491.00	0.096
490.80	0.097
490.60	0.096
490.40	0.097
490.20	0.097
490.00	0.097
489.80	0.100
489.60	0.099
489.40	0.101
489.20	0.101
489.00	0.102
488.80	0.103
488.60	0.105
488.40	0.105
488.20	0.105
488.00	0.105
487.80	0.107
487.60	0.107
487.40	0.108
487.20	0.107
487.00	0.110
486.80	0.111
486.60	0.110
486.40	0.111
486.20	0.113
486.00	0.113
485.80	0.113
485.60	0.114
485.40	0.115
485.20	0.115
485.00	0.116
484.80	0.117
484.60	0.118
484.40	0.120
484.20	0.119
484.00	0.120
483.80	0.121
483.60	0.123
483.40	0.122
483.20	0.123
483.00	0.125
482.80	0.125
482.60	0.125
482.40	0.127
482.20	0.127
482.00	0.127
481.80	0.128
481.60	0.128
481.40	0.129
481.20	0.131
481.00	0.131
480.80	0.132
480.60	0.133
480.40	0.134
480.20	0.134
480.00	0.137
479.80	0.134
479.60	0.137
479.40	0.138
479.20	0.138
479.00	0.138
478.80	0.141
478.60	0.141
478.40	0.140
478.20	0.141
478.00	0.143
477.80	0.143
477.60	0.145
477.40	0.147
477.20	0.145
477.00	0.147
476.80	0.147
476.60	0.147
476.40	0.147
476.20	0.150
476.00	0.150
475.80	0.152
475.60	0.152
475.40	0.152
475.20	0.153
475.00	0.152
474.80	0.156
474.60	0.156
474.40	0.156
474.20	0.158
474.00	0.158
473.80	0.159
473.60	0.159
473.40	0.160
473.20	0.160
473.00	0.161
472.80	0.163
472.60	0.163
472.40	0.164
472.20	0.164
472.00	0.165
471.80	0.167
471.60	0.167
471.40	0.168
471.20	0.169
471.00	0.169
470.80	0.170
470.60	0.170
470.40	0.172
470.20	0.171
470.00	0.172
469.80	0.175
469.60	0.175
469.40	0.176
469.20	0.176
469.00	0.176
468.80	0.176
468.60	0.176
468.40	0.179
468.20	0.179
468.00	0.179
467.80	0.180
467.60	0.181
467.40	0.181
467.20	0.183
467.00	0.184
466.80	0.187
466.60	0.186
466.40	0.185
466.20	0.185
466.00	0.185
465.80	0.187
465.60	0.188
465.40	0.190
465.20	0.190
465.00	0.191
464.80	0.189
464.60	0.192
464.40	0.193
464.20	0.193
464.00	0.195
463.80	0.194
463.60	0.195
463.40	0.197
463.20	0.197
463.00	0.196
462.80	0.198
462.60	0.196
462.40	0.200
462.20	0.200
462.00	0.200
461.80	0.200
461.60	0.201
461.40	0.201
461.20	0.203
461.00	0.204
460.80	0.205
460.60	0.207
460.40	0.205
460.20	0.205
460.00	0.206
459.80	0.208
459.60	0.206
459.40	0.208
459.20	0.210
459.00	0.210
458.80	0.211
458.60	0.211
458.40	0.211
458.20	0.211
458.00	0.212
457.80	0.214
457.60	0.214
457.40	0.214
457.20	0.216
457.00	0.214
456.80	0.215
456.60	0.215
456.40	0.217
456.20	0.218
456.00	0.217
455.80	0.220
455.60	0.220
455.40	0.219
455.20	0.220
455.00	0.221
454.80	0.221
454.60	0.221
454.40	0.222
454.20	0.222
454.00	0.223
453.80	0.224
453.60	0.223
453.40	0.226
453.20	0.227
453.00	0.226
452.80	0.226
452.60	0.225
452.40	0.227
452.20	0.228
452.00	0.228
451.80	0.228
451.60	0.228
451.40	0.231
451.20	0.229
451.00	0.230
450.80	0.230
450.60	0.230
450.40	0.230
450.20	0.233
450.00	0.231
449.80	0.232
449.60	0.232
449.40	0.232
449.20	0.232
449.00	0.233
448.80	0.235
448.60	0.234
448.40	0.235
448.20	0.236
448.00	0.236
447.80	0.235
447.60	0.234
447.40	0.236
447.20	0.237
447.00	0.235
446.80	0.236
446.60	0.238
446.40	0.237
446.20	0.238
446.00	0.236
445.80	0.239
445.60	0.238
445.40	0.239
445.20	0.240
445.00	0.239
444.80	0.237
444.60	0.240
444.40	0.239
444.20	0.241
444.00	0.241
443.80	0.241
443.60	0.241
443.40	0.242
443.20	0.241
443.00	0.242
442.80	0.241
442.60	0.241
442.40	0.242
442.20	0.241
442.00	0.244
441.80	0.244
441.60	0.242
441.40	0.242
441.20	0.240
441.00	0.241
440.80	0.242
440.60	0.243
440.40	0.243
440.20	0.243
440.00	0.243
439.80	0.244
439.60	0.244
439.40	0.243
439.20	0.243
439.00	0.244
438.80	0.245
438.60	0.241
438.40	0.242
438.20	0.243
438.00	0.243
437.80	0.243
437.60	0.244
437.40	0.246
437.20	0.246
437.00	0.244
436.80	0.242
436.60	0.242
436.40	0.243
436.20	0.242
436.00	0.246
435.80	0.245
435.60	0.245
435.40	0.243
435.20	0.243
435.00	0.242
434.80	0.243
434.60	0.245
434.40	0.243
434.20	0.241
434.00	0.243
433.80	0.242
433.60	0.242
433.40	0.243
433.20	0.241
433.00	0.241
432.80	0.243
432.60	0.242
432.40	0.242
432.20	0.241
432.00	0.239
431.80	0.243
431.60	0.243
431.40	0.241
431.20	0.242
431.00	0.240
430.80	0.241
430.60	0.240
430.40	0.239
430.20	0.239
430.00	0.239
429.80	0.238
429.60	0.238
429.40	0.237
429.20	0.238
429.00	0.240
428.80	0.239
428.60	0.240
428.40	0.239
428.20	0.237
428.00	0.237
427.80	0.236
427.60	0.236
427.40	0.236
427.20	0.237
427.00	0.234
426.80	0.235
426.60	0.235
426.40	0.235
426.20	0.235
426.00	0.234
425.80	0.232
425.60	0.233
425.40	0.233
425.20	0.230
425.00	0.231
424.80	0.233
424.60	0.232
424.40	0.230
424.20	0.230
424.00	0.230
423.80	0.229
423.60	0.232
423.40	0.226
423.20	0.229
423.00	0.226
422.80	0.227
422.60	0.228
422.40	0.229
422.20	0.225
422.00	0.217
421.80	0.218
421.60	0.218
421.40	0.218
421.20	0.217
421.00	0.217
420.80	0.215
420.60	0.214
420.40	0.216
420.20	0.215
420.00	0.214
419.80	0.216
419.60	0.213
419.40	0.214
419.20	0.212
419.00	0.211
418.80	0.211
418.60	0.211
418.40	0.210
418.20	0.210
418.00	0.208
417.80	0.209
417.60	0.208
417.40	0.208
417.20	0.209
417.00	0.206
416.80	0.205
416.60	0.206
416.40	0.205
416.20	0.204
416.00	0.203
415.80	0.203
415.60	0.203
415.40	0.203
415.20	0.203
415.00	0.200
414.80	0.201
414.60	0.199
414.40	0.198
414.20	0.199
414.00	0.199
413.80	0.195
413.60	0.196
413.40	0.196
413.20	0.195
413.00	0.195
412.80	0.196
412.60	0.194
412.40	0.194
412.20	0.193
412.00	0.194
411.80	0.191
411.60	0.191
411.40	0.190
411.20	0.191
411.00	0.188
410.80	0.189
410.60	0.189
410.40	0.188
410.20	0.188
410.00	0.186
409.80	0.184
409.60	0.185
409.40	0.184
409.20	0.183
409.00	0.183
408.80	0.183
408.60	0.181
408.40	0.180
408.20	0.180
408.00	0.181
407.80	0.178
407.60	0.177
407.40	0.177
407.20	0.175
407.00	0.174
406.80	0.174
406.60	0.174
406.40	0.174
406.20	0.173
406.00	0.173
405.80	0.170
405.60	0.170
405.40	0.171
405.20	0.171
405.00	0.168
404.80	0.170
404.60	0.169
404.40	0.166
404.20	0.165
404.00	0.165
403.80	0.166
403.60	0.165
403.40	0.164
403.20	0.162
403.00	0.161
402.80	0.161
402.60	0.162
402.40	0.159
402.20	0.157
402.00	0.162
401.80	0.158
401.60	0.158
401.40	0.158
401.20	0.157
401.00	0.154
400.80	0.154
400.60	0.155
400.40	0.154
400.20	0.154
400.00	0.151
